EC-Lab ASCII FILE
Nb header lines : 50                          

Open Circuit Voltage

Run on channel : 3 (SN 4895)
User : 
Electrode connection : standard
Ewe ctrl range : min = -10.00 V, max = 10.00 V
Ewe,I filtering : 50 kHz
Safety Limits :
	Do not start on E overload
Channel : Grounded
Acquisition started on : 06/04/2018 12:45:52
Technique started on : 06/04/2018 16:48:28
Saved on :
	File : GF201805_21_07_OCV.mpr
	Directory : C:\Users\L004\Documents\EC-Lab\Data\2018\06 June\04June_Erdem_NO3R\
	Host : 192.109.209.127
Device : VMP-300 (SN 0241)
Address : 192.109.209.128
EC-Lab for windows v11.12 (software)
Internet server v11.12 (firmware)
Command interpretor v11.12 (firmware)
Electrode material : 201805_21
Initial state : 500rpm stirring - N2 blanket
Electrolyte : 30mM NaClO4 100ppm NaNO3
Comments : Vacuum in 90mL
Comments : 1 g/L GO 70% 130ºC 8h
Current amplifier : B-2A30V
Cable : special
Reference electrode : Ag/AgCl Ref #7 (0.208 V)
Electrode surface area : 2.000 cm²
Characteristic mass : 1.000 g
Equivalent Weight : 0.000 g/eq.
Density : 0.000 g/cm3
Record Ece
Text export
Cycle Definition : Charge/Discharge alternance
tR (h:m:s)          0:05:0.0000         
dER/dt (mV/h)       0.0                 
dER (mV)            0.00                
dtR (s)             0.5000              
E range min (V)     -10.000             
E range max (V)     10.000              

Number of loops : 1
Loop 0 from point number 0 to 600

mode	error	time/s	Ewe/V	Ece/V	Rcmp/Ohm	Ewe-Ece/V	
3	0	1.455632837078461E+004	-1.2195003E+000	1.4547071E+000	0.0000000E+000	-2.6742074E+000
3	0	1.455682837077856E+004	-1.1496452E+000	1.4243324E+000	0.0000000E+000	-2.5739775E+000
3	0	1.455732837077251E+004	-1.1002077E+000	1.4069461E+000	0.0000000E+000	-2.5071537E+000
3	0	1.455782837076645E+004	-1.0622529E+000	1.3948169E+000	0.0000000E+000	-2.4570699E+000
3	0	1.455832837076040E+004	-1.0312388E+000	1.3854364E+000	0.0000000E+000	-2.4166751E+000
3	0	1.455882837075435E+004	-1.0048163E+000	1.3778771E+000	0.0000000E+000	-2.3826933E+000
3	0	1.455932837074829E+004	-9.8209149E-001	1.3711082E+000	0.0000000E+000	-2.3531997E+000
3	0	1.455982837074224E+004	-9.6183443E-001	1.3655760E+000	0.0000000E+000	-2.3274105E+000
3	0	1.456032837073618E+004	-9.4422454E-001	1.3601815E+000	0.0000000E+000	-2.3044059E+000
3	0	1.456082837073013E+004	-9.2821521E-001	1.3557833E+000	0.0000000E+000	-2.2839985E+000
3	0	1.456132837072408E+004	-9.1401654E-001	1.3515227E+000	0.0000000E+000	-2.2655392E+000
3	0	1.456182837071802E+004	-9.0066963E-001	1.3475711E+000	0.0000000E+000	-2.2482407E+000
3	0	1.456232837071197E+004	-8.8775063E-001	1.3442038E+000	0.0000000E+000	-2.2319546E+000
3	0	1.456282837070592E+004	-8.7508374E-001	1.3409052E+000	0.0000000E+000	-2.2159889E+000
3	0	1.456332837069986E+004	-8.6277980E-001	1.3383281E+000	0.0000000E+000	-2.2011080E+000
3	0	1.456382837069381E+004	-8.5103726E-001	1.3352014E+000	0.0000000E+000	-2.1862388E+000
3	0	1.456432837068776E+004	-8.3987164E-001	1.3324869E+000	0.0000000E+000	-2.1723585E+000
3	0	1.456482837068170E+004	-8.2869452E-001	1.3303221E+000	0.0000000E+000	-2.1590166E+000
3	0	1.456532837067565E+004	-8.1833482E-001	1.3278826E+000	0.0000000E+000	-2.1462173E+000
3	0	1.456582837066959E+004	-8.0806303E-001	1.3255117E+000	0.0000000E+000	-2.1335747E+000
3	0	1.456632837066354E+004	-7.9809302E-001	1.3233470E+000	0.0000000E+000	-2.1214399E+000
3	0	1.456682837065749E+004	-7.8861195E-001	1.3213197E+000	0.0000000E+000	-2.1099317E+000
3	0	1.456732837065143E+004	-7.7926075E-001	1.3191894E+000	0.0000000E+000	-2.0984502E+000
3	0	1.456782837064538E+004	-7.7007002E-001	1.3173339E+000	0.0000000E+000	-2.0874040E+000
3	0	1.456832837063933E+004	-7.6134914E-001	1.3153753E+000	0.0000000E+000	-2.0767245E+000
3	0	1.456882837063327E+004	-7.5292230E-001	1.3134168E+000	0.0000000E+000	-2.0663390E+000
3	0	1.456932837062722E+004	-7.4490809E-001	1.3114927E+000	0.0000000E+000	-2.0564008E+000
3	0	1.456982837062117E+004	-7.3702371E-001	1.3099464E+000	0.0000000E+000	-2.0469701E+000
3	0	1.457032837061511E+004	-7.2943354E-001	1.3082284E+000	0.0000000E+000	-2.0376620E+000
3	0	1.457082837060906E+004	-7.2221386E-001	1.3063729E+000	0.0000000E+000	-2.0285869E+000
3	0	1.457132837060301E+004	-7.1519667E-001	1.3048611E+000	0.0000000E+000	-2.0200577E+000
3	0	1.457182837059695E+004	-7.0830554E-001	1.3033836E+000	0.0000000E+000	-2.0116892E+000
3	0	1.457232837059090E+004	-7.0171225E-001	1.3017687E+000	0.0000000E+000	-2.0034809E+000
3	0	1.457282837058484E+004	-6.9531387E-001	1.3002911E+000	0.0000000E+000	-1.9956050E+000
3	0	1.457332837057879E+004	-6.8915236E-001	1.2988136E+000	0.0000000E+000	-1.9879659E+000
3	0	1.457382837057274E+004	-6.8318176E-001	1.2976110E+000	0.0000000E+000	-1.9807928E+000
3	0	1.457432837056668E+004	-6.7738312E-001	1.2959961E+000	0.0000000E+000	-1.9733791E+000
3	0	1.457482837056063E+004	-6.7189008E-001	1.2943124E+000	0.0000000E+000	-1.9662025E+000
3	0	1.457532837055458E+004	-6.6643137E-001	1.2930754E+000	0.0000000E+000	-1.9595068E+000
3	0	1.457582837054852E+004	-6.6124016E-001	1.2917354E+000	0.0000000E+000	-1.9529755E+000
3	0	1.457632837054247E+004	-6.5607554E-001	1.2903609E+000	0.0000000E+000	-1.9464364E+000
3	0	1.457682837053642E+004	-6.5076965E-001	1.2891239E+000	0.0000000E+000	-1.9398935E+000
3	0	1.457732837053036E+004	-6.4560515E-001	1.2877495E+000	0.0000000E+000	-1.9333546E+000
3	0	1.457782837052431E+004	-6.4052463E-001	1.2865469E+000	0.0000000E+000	-1.9270716E+000
3	0	1.457832837051825E+004	-6.3545942E-001	1.2852756E+000	0.0000000E+000	-1.9207350E+000
3	0	1.457882837051220E+004	-6.3047820E-001	1.2843479E+000	0.0000000E+000	-1.9148262E+000
3	0	1.457932837050615E+004	-6.2578732E-001	1.2829046E+000	0.0000000E+000	-1.9086919E+000
3	0	1.457982837050009E+004	-6.2094748E-001	1.2818738E+000	0.0000000E+000	-1.9028213E+000
3	0	1.458032837049404E+004	-6.1611146E-001	1.2805682E+000	0.0000000E+000	-1.8966796E+000
3	0	1.458082837048799E+004	-6.1139756E-001	1.2790906E+000	0.0000000E+000	-1.8904881E+000
3	0	1.458132837048193E+004	-6.0641265E-001	1.2781973E+000	0.0000000E+000	-1.8846099E+000
3	0	1.458182837047588E+004	-6.0143530E-001	1.2771665E+000	0.0000000E+000	-1.8786018E+000
3	0	1.458232837046983E+004	-5.9660304E-001	1.2756547E+000	0.0000000E+000	-1.8722577E+000
3	0	1.458282837046377E+004	-5.9146899E-001	1.2752423E+000	0.0000000E+000	-1.8667114E+000
3	0	1.458332837045772E+004	-5.8659863E-001	1.2740740E+000	0.0000000E+000	-1.8606726E+000
3	0	1.458382837045167E+004	-5.8142269E-001	1.2731119E+000	0.0000000E+000	-1.8545346E+000
3	0	1.458432837044561E+004	-5.7676613E-001	1.2716345E+000	0.0000000E+000	-1.8484006E+000
3	0	1.458482837043956E+004	-5.7171625E-001	1.2706380E+000	0.0000000E+000	-1.8423543E+000
3	0	1.458532837043350E+004	-5.6675023E-001	1.2698133E+000	0.0000000E+000	-1.8365636E+000
3	0	1.458582837042745E+004	-5.6188363E-001	1.2685764E+000	0.0000000E+000	-1.8304601E+000
3	0	1.458632837042140E+004	-5.5707437E-001	1.2677174E+000	0.0000000E+000	-1.8247917E+000
3	0	1.458682837041534E+004	-5.5197859E-001	1.2667896E+000	0.0000000E+000	-1.8187681E+000
3	0	1.458732837040929E+004	-5.4716551E-001	1.2660336E+000	0.0000000E+000	-1.8131992E+000
3	0	1.458782837040324E+004	-5.4250896E-001	1.2649342E+000	0.0000000E+000	-1.8074431E+000
3	0	1.458832837039718E+004	-5.3779519E-001	1.2642813E+000	0.0000000E+000	-1.8020765E+000
3	0	1.458882837039113E+004	-5.3321505E-001	1.2631818E+000	0.0000000E+000	-1.7963969E+000
3	0	1.458932837038508E+004	-5.2875334E-001	1.2622883E+000	0.0000000E+000	-1.7910416E+000
3	0	1.458982837037902E+004	-5.2434522E-001	1.2618418E+000	0.0000000E+000	-1.7861869E+000
3	0	1.459032837037297E+004	-5.2026546E-001	1.2606391E+000	0.0000000E+000	-1.7809045E+000
3	0	1.459082837036691E+004	-5.1613235E-001	1.2596769E+000	0.0000000E+000	-1.7758093E+000
3	0	1.459132837036086E+004	-5.1180053E-001	1.2591959E+000	0.0000000E+000	-1.7709965E+000
3	0	1.459182837035481E+004	-5.0789273E-001	1.2582682E+000	0.0000000E+000	-1.7661610E+000
3	0	1.459232837034875E+004	-5.0387412E-001	1.2574092E+000	0.0000000E+000	-1.7612834E+000
3	0	1.459282837034270E+004	-4.9997404E-001	1.2568594E+000	0.0000000E+000	-1.7568334E+000
3	0	1.459332837033665E+004	-4.9628019E-001	1.2555194E+000	0.0000000E+000	-1.7517996E+000
3	0	1.459382837033059E+004	-4.9250606E-001	1.2550039E+000	0.0000000E+000	-1.7475100E+000
3	0	1.459432837032454E+004	-4.8874342E-001	1.2547634E+000	0.0000000E+000	-1.7435068E+000
3	0	1.459482837031849E+004	-4.8516038E-001	1.2538700E+000	0.0000000E+000	-1.7390304E+000
3	0	1.459532837031243E+004	-4.8166507E-001	1.2530454E+000	0.0000000E+000	-1.7347105E+000
3	0	1.459582837030638E+004	-4.7805524E-001	1.2524956E+000	0.0000000E+000	-1.7305509E+000
3	0	1.459632837030033E+004	-4.7479308E-001	1.2514992E+000	0.0000000E+000	-1.7262923E+000
3	0	1.459682837029427E+004	-4.7150406E-001	1.2509494E+000	0.0000000E+000	-1.7224535E+000
3	0	1.459732837028822E+004	-4.6814638E-001	1.2499874E+000	0.0000000E+000	-1.7181337E+000
3	0	1.459782837028216E+004	-4.6490705E-001	1.2495062E+000	0.0000000E+000	-1.7144133E+000
3	0	1.459832837027611E+004	-4.6169829E-001	1.2488534E+000	0.0000000E+000	-1.7105517E+000
3	0	1.459882837027006E+004	-4.5882195E-001	1.2483037E+000	0.0000000E+000	-1.7071257E+000
3	0	1.459932837026400E+004	-4.5562083E-001	1.2476164E+000	0.0000000E+000	-1.7032373E+000
3	0	1.459982837025795E+004	-4.5268714E-001	1.2467918E+000	0.0000000E+000	-1.6994790E+000
3	0	1.460032837025190E+004	-4.4958144E-001	1.2464482E+000	0.0000000E+000	-1.6960297E+000
3	0	1.460082837024584E+004	-4.4684637E-001	1.2459671E+000	0.0000000E+000	-1.6928135E+000
3	0	1.460132837023979E+004	-4.4405782E-001	1.2451769E+000	0.0000000E+000	-1.6892347E+000
3	0	1.460182837023374E+004	-4.4144499E-001	1.2446271E+000	0.0000000E+000	-1.6860721E+000
3	0	1.460232837022768E+004	-4.3857622E-001	1.2442491E+000	0.0000000E+000	-1.6828253E+000
3	0	1.460282837022163E+004	-4.3595585E-001	1.2435275E+000	0.0000000E+000	-1.6794834E+000
3	0	1.460332837021558E+004	-4.3315193E-001	1.2428746E+000	0.0000000E+000	-1.6760266E+000
3	0	1.460382837020952E+004	-4.3051618E-001	1.2421875E+000	0.0000000E+000	-1.6727037E+000
3	0	1.460432837020347E+004	-4.2830062E-001	1.2420844E+000	0.0000000E+000	-1.6703850E+000
3	0	1.460482837019741E+004	-4.2572215E-001	1.2415346E+000	0.0000000E+000	-1.6672567E+000
3	0	1.460532837019136E+004	-4.2324689E-001	1.2413285E+000	0.0000000E+000	-1.6645753E+000
3	0	1.460582837018531E+004	-4.2089382E-001	1.2405726E+000	0.0000000E+000	-1.6614664E+000
3	0	1.460632837017925E+004	-4.1884246E-001	1.2397479E+000	0.0000000E+000	-1.6585903E+000
3	0	1.460682837017320E+004	-4.1667652E-001	1.2394387E+000	0.0000000E+000	-1.6561152E+000
3	0	1.460732837016715E+004	-4.1452974E-001	1.2387171E+000	0.0000000E+000	-1.6532469E+000
3	0	1.460782837016109E+004	-4.1213468E-001	1.2386140E+000	0.0000000E+000	-1.6507486E+000
3	0	1.460832837015504E+004	-4.0992674E-001	1.2380642E+000	0.0000000E+000	-1.6479909E+000
3	0	1.460882837014899E+004	-4.0774176E-001	1.2379612E+000	0.0000000E+000	-1.6457030E+000
3	0	1.460932837014293E+004	-4.0564841E-001	1.2376176E+000	0.0000000E+000	-1.6432660E+000
3	0	1.460982837013688E+004	-4.0371174E-001	1.2367241E+000	0.0000000E+000	-1.6404359E+000
3	0	1.461032837013082E+004	-4.0182468E-001	1.2364837E+000	0.0000000E+000	-1.6383084E+000
3	0	1.461082837012477E+004	-3.9987651E-001	1.2360026E+000	0.0000000E+000	-1.6358790E+000
3	0	1.461132837011872E+004	-3.9780995E-001	1.2356247E+000	0.0000000E+000	-1.6334347E+000
3	0	1.461182837011266E+004	-3.9602599E-001	1.2353153E+000	0.0000000E+000	-1.6313413E+000
3	0	1.461232837010661E+004	-3.9411989E-001	1.2348343E+000	0.0000000E+000	-1.6289542E+000
3	0	1.461282837010056E+004	-3.9226344E-001	1.2342845E+000	0.0000000E+000	-1.6265479E+000
3	0	1.461332837009450E+004	-3.9034197E-001	1.2340784E+000	0.0000000E+000	-1.6244204E+000
3	0	1.461382837008845E+004	-3.8868409E-001	1.2336317E+000	0.0000000E+000	-1.6223159E+000
3	0	1.461432837008240E+004	-3.8708362E-001	1.2330132E+000	0.0000000E+000	-1.6200968E+000
3	0	1.461482837007634E+004	-3.8523856E-001	1.2329102E+000	0.0000000E+000	-1.6181487E+000
3	0	1.461532837007029E+004	-3.8372207E-001	1.2327040E+000	0.0000000E+000	-1.6164261E+000
3	0	1.461582837006424E+004	-3.8211763E-001	1.2322229E+000	0.0000000E+000	-1.6143405E+000
3	0	1.461632837005818E+004	-3.8044074E-001	1.2316045E+000	0.0000000E+000	-1.6120452E+000
3	0	1.461682837005213E+004	-3.7865677E-001	1.2316388E+000	0.0000000E+000	-1.6102955E+000
3	0	1.461732837004607E+004	-3.7704474E-001	1.2315013E+000	0.0000000E+000	-1.6085460E+000
3	0	1.461782837004002E+004	-3.7574983E-001	1.2309515E+000	0.0000000E+000	-1.6067014E+000
3	0	1.461832837003397E+004	-3.7401557E-001	1.2307454E+000	0.0000000E+000	-1.6047610E+000
3	0	1.461882837002791E+004	-3.7253347E-001	1.2301270E+000	0.0000000E+000	-1.6026604E+000
3	0	1.461932837002186E+004	-3.7113151E-001	1.2299552E+000	0.0000000E+000	-1.6010867E+000
3	0	1.461982837001581E+004	-3.6975634E-001	1.2295772E+000	0.0000000E+000	-1.5993335E+000
3	0	1.462032837000975E+004	-3.6797240E-001	1.2294054E+000	0.0000000E+000	-1.5973778E+000
3	0	1.462082837000370E+004	-3.6677679E-001	1.2291993E+000	0.0000000E+000	-1.5959761E+000
3	0	1.462132836999765E+004	-3.6533672E-001	1.2289244E+000	0.0000000E+000	-1.5942612E+000
3	0	1.462182836999159E+004	-3.6405694E-001	1.2286838E+000	0.0000000E+000	-1.5927408E+000
3	0	1.462232836998554E+004	-3.6275437E-001	1.2284776E+000	0.0000000E+000	-1.5912319E+000
3	0	1.462282836997948E+004	-3.6140597E-001	1.2279966E+000	0.0000000E+000	-1.5894026E+000
3	0	1.462332836997343E+004	-3.6022568E-001	1.2278248E+000	0.0000000E+000	-1.5880505E+000
3	0	1.462382836996738E+004	-3.5883516E-001	1.2275156E+000	0.0000000E+000	-1.5863507E+000
3	0	1.462432836996132E+004	-3.5775036E-001	1.2272407E+000	0.0000000E+000	-1.5849910E+000
3	0	1.462482836995527E+004	-3.5641718E-001	1.2270688E+000	0.0000000E+000	-1.5834860E+000
3	0	1.462532836994922E+004	-3.5504580E-001	1.2265191E+000	0.0000000E+000	-1.5815649E+000
3	0	1.462582836994316E+004	-3.5397241E-001	1.2265878E+000	0.0000000E+000	-1.5805602E+000
3	0	1.462632836993711E+004	-3.5276154E-001	1.2265191E+000	0.0000000E+000	-1.5792806E+000
3	0	1.462682836993106E+004	-3.5174155E-001	1.2261411E+000	0.0000000E+000	-1.5778826E+000
3	0	1.462732836992500E+004	-3.5045809E-001	1.2256601E+000	0.0000000E+000	-1.5761182E+000
3	0	1.462782836991895E+004	-3.4910581E-001	1.2257632E+000	0.0000000E+000	-1.5748690E+000
3	0	1.462832836991290E+004	-3.4792164E-001	1.2254539E+000	0.0000000E+000	-1.5733755E+000
3	0	1.462882836990684E+004	-3.4688646E-001	1.2252134E+000	0.0000000E+000	-1.5720999E+000
3	0	1.462932836990079E+004	-3.4580538E-001	1.2250760E+000	0.0000000E+000	-1.5708814E+000
3	0	1.462982836989473E+004	-3.4468997E-001	1.2247667E+000	0.0000000E+000	-1.5694567E+000
3	0	1.463032836988868E+004	-3.4371591E-001	1.2244231E+000	0.0000000E+000	-1.5681390E+000
3	0	1.463082836988263E+004	-3.4279144E-001	1.2240108E+000	0.0000000E+000	-1.5668023E+000
3	0	1.463132836987657E+004	-3.4161487E-001	1.2241826E+000	0.0000000E+000	-1.5657974E+000
3	0	1.463182836987052E+004	-3.4076685E-001	1.2236671E+000	0.0000000E+000	-1.5644341E+000
3	0	1.463232836986447E+004	-3.3961707E-001	1.2237016E+000	0.0000000E+000	-1.5633187E+000
3	0	1.463282836985841E+004	-3.3883020E-001	1.2232548E+000	0.0000000E+000	-1.5620850E+000
3	0	1.463332836985236E+004	-3.3788663E-001	1.2226708E+000	0.0000000E+000	-1.5605574E+000
3	0	1.463382836984631E+004	-3.3678654E-001	1.2228426E+000	0.0000000E+000	-1.5596291E+000
3	0	1.463432836984025E+004	-3.3576277E-001	1.2228426E+000	0.0000000E+000	-1.5586053E+000
3	0	1.463482836983420E+004	-3.3469316E-001	1.2226020E+000	0.0000000E+000	-1.5572952E+000
3	0	1.463532836982814E+004	-3.3374581E-001	1.2223271E+000	0.0000000E+000	-1.5560730E+000
3	0	1.463582836982209E+004	-3.3267242E-001	1.2223959E+000	0.0000000E+000	-1.5550683E+000
3	0	1.463632836981604E+004	-3.3182830E-001	1.2224301E+000	0.0000000E+000	-1.5542583E+000
3	0	1.463682836980998E+004	-3.3078155E-001	1.2219491E+000	0.0000000E+000	-1.5527307E+000
3	0	1.463732836980393E+004	-3.3007485E-001	1.2215024E+000	0.0000000E+000	-1.5515773E+000
3	0	1.463782836979788E+004	-3.2931095E-001	1.2216742E+000	0.0000000E+000	-1.5509851E+000
3	0	1.463832836979182E+004	-3.2843998E-001	1.2213993E+000	0.0000000E+000	-1.5498393E+000
3	0	1.463882836978577E+004	-3.2749259E-001	1.2211932E+000	0.0000000E+000	-1.5486858E+000
3	0	1.463932836977972E+004	-3.2646123E-001	1.2212620E+000	0.0000000E+000	-1.5477232E+000
3	0	1.463982836977366E+004	-3.2567433E-001	1.2208840E+000	0.0000000E+000	-1.5465583E+000
3	0	1.464032836976761E+004	-3.2492176E-001	1.2205403E+000	0.0000000E+000	-1.5454620E+000
3	0	1.464082836976156E+004	-3.2403943E-001	1.2205061E+000	0.0000000E+000	-1.5445455E+000
3	0	1.464132836975550E+004	-3.2306528E-001	1.2205747E+000	0.0000000E+000	-1.5436400E+000
3	0	1.464182836974945E+004	-3.2228607E-001	1.2204030E+000	0.0000000E+000	-1.5426891E+000
3	0	1.464232836974339E+004	-3.2151058E-001	1.2199906E+000	0.0000000E+000	-1.5415012E+000
3	0	1.464282836973734E+004	-3.2080778E-001	1.2201967E+000	0.0000000E+000	-1.5410045E+000
3	0	1.464332836973129E+004	-3.1996733E-001	1.2199906E+000	0.0000000E+000	-1.5399580E+000
3	0	1.464382836972523E+004	-3.1926066E-001	1.2196813E+000	0.0000000E+000	-1.5389419E+000
3	0	1.464432836971918E+004	-3.1849286E-001	1.2194065E+000	0.0000000E+000	-1.5378994E+000
3	0	1.464482836971313E+004	-3.1769454E-001	1.2195095E+000	0.0000000E+000	-1.5372040E+000
3	0	1.464532836970707E+004	-3.1649119E-001	1.2195783E+000	0.0000000E+000	-1.5360694E+000
3	0	1.464582836970102E+004	-3.1578070E-001	1.2194752E+000	0.0000000E+000	-1.5352559E+000
3	0	1.464632836969497E+004	-3.1525740E-001	1.2190629E+000	0.0000000E+000	-1.5343204E+000
3	0	1.464682836968891E+004	-3.1463480E-001	1.2188222E+000	0.0000000E+000	-1.5334570E+000
3	0	1.464732836968286E+004	-3.1382492E-001	1.2189254E+000	0.0000000E+000	-1.5327502E+000
3	0	1.464782836967680E+004	-3.1301895E-001	1.2189598E+000	0.0000000E+000	-1.5319787E+000
3	0	1.464832836967075E+004	-3.1223586E-001	1.2188911E+000	0.0000000E+000	-1.5311270E+000
3	0	1.464882836966470E+004	-3.1156349E-001	1.2187192E+000	0.0000000E+000	-1.5302827E+000
3	0	1.464932836965864E+004	-3.1102487E-001	1.2183069E+000	0.0000000E+000	-1.5293318E+000
3	0	1.464982836965259E+004	-3.1034872E-001	1.2180663E+000	0.0000000E+000	-1.5284151E+000
3	0	1.465032836964654E+004	-3.0966499E-001	1.2179977E+000	0.0000000E+000	-1.5276626E+000
3	0	1.465082836964048E+004	-3.0894303E-001	1.2181351E+000	0.0000000E+000	-1.5270782E+000
3	0	1.465132836963443E+004	-3.0817133E-001	1.2178602E+000	0.0000000E+000	-1.5260315E+000
3	0	1.465182836962838E+004	-3.0748385E-001	1.2183412E+000	0.0000000E+000	-1.5258250E+000
3	0	1.465232836962232E+004	-3.0676946E-001	1.2179633E+000	0.0000000E+000	-1.5247328E+000
3	0	1.465282836961627E+004	-3.0628437E-001	1.2173792E+000	0.0000000E+000	-1.5236635E+000
3	0	1.465332836961022E+004	-3.0566937E-001	1.2173449E+000	0.0000000E+000	-1.5230143E+000
3	0	1.465382836960416E+004	-3.0474877E-001	1.2173449E+000	0.0000000E+000	-1.5220937E+000
3	0	1.465432836959811E+004	-3.0404970E-001	1.2174823E+000	0.0000000E+000	-1.5215321E+000
3	0	1.465482836959205E+004	-3.0359131E-001	1.2172418E+000	0.0000000E+000	-1.5208330E+000
3	0	1.465532836958600E+004	-3.0266684E-001	1.2174135E+000	0.0000000E+000	-1.5200803E+000
3	0	1.465582836957995E+004	-3.0232692E-001	1.2170700E+000	0.0000000E+000	-1.5193969E+000
3	0	1.465632836957389E+004	-3.0173105E-001	1.2171386E+000	0.0000000E+000	-1.5188696E+000
3	0	1.465682836956784E+004	-3.0107784E-001	1.2168982E+000	0.0000000E+000	-1.5179760E+000
3	0	1.465732836956179E+004	-3.0060795E-001	1.2165202E+000	0.0000000E+000	-1.5171281E+000
3	0	1.465782836955573E+004	-2.9991269E-001	1.2167606E+000	0.0000000E+000	-1.5166733E+000
3	0	1.465832836954968E+004	-2.9901502E-001	1.2168638E+000	0.0000000E+000	-1.5158788E+000
3	0	1.465882836954363E+004	-2.9846498E-001	1.2166920E+000	0.0000000E+000	-1.5151570E+000
3	0	1.465932836953757E+004	-2.9781181E-001	1.2165545E+000	0.0000000E+000	-1.5143664E+000
3	0	1.465982836953152E+004	-2.9751375E-001	1.2162453E+000	0.0000000E+000	-1.5137590E+000
3	0	1.466032836952547E+004	-2.9695231E-001	1.2161423E+000	0.0000000E+000	-1.5130947E+000
3	0	1.466082836951941E+004	-2.9627228E-001	1.2163484E+000	0.0000000E+000	-1.5126207E+000
3	0	1.466132836951336E+004	-2.9576427E-001	1.2159704E+000	0.0000000E+000	-1.5117347E+000
3	0	1.466182836950730E+004	-2.9528296E-001	1.2159361E+000	0.0000000E+000	-1.5112190E+000
3	0	1.466232836950125E+004	-2.9453808E-001	1.2159016E+000	0.0000000E+000	-1.5104396E+000
3	0	1.466282836949520E+004	-2.9424396E-001	1.2157643E+000	0.0000000E+000	-1.5100082E+000
3	0	1.466332836948914E+004	-2.9370150E-001	1.2156268E+000	0.0000000E+000	-1.5093284E+000
3	0	1.466382836948309E+004	-2.9297569E-001	1.2156612E+000	0.0000000E+000	-1.5086368E+000
3	0	1.466432836947704E+004	-2.9231101E-001	1.2158674E+000	0.0000000E+000	-1.5081785E+000
3	0	1.466482836947098E+004	-2.9189092E-001	1.2152833E+000	0.0000000E+000	-1.5071743E+000
3	0	1.466532836946493E+004	-2.9129112E-001	1.2152488E+000	0.0000000E+000	-1.5065399E+000
3	0	1.466582836945888E+004	-2.9097405E-001	1.2151802E+000	0.0000000E+000	-1.5061542E+000
3	0	1.466632836945282E+004	-2.9055774E-001	1.2153519E+000	0.0000000E+000	-1.5059097E+000
3	0	1.466682836944677E+004	-2.9011083E-001	1.2150770E+000	0.0000000E+000	-1.5051879E+000
3	0	1.466732836944071E+004	-2.8951865E-001	1.2149053E+000	0.0000000E+000	-1.5044239E+000
3	0	1.466782836943466E+004	-2.8883108E-001	1.2148365E+000	0.0000000E+000	-1.5036676E+000
3	0	1.466832836942861E+004	-2.8831539E-001	1.2149739E+000	0.0000000E+000	-1.5032893E+000
3	0	1.466882836942255E+004	-2.8796399E-001	1.2146990E+000	0.0000000E+000	-1.5026630E+000
3	0	1.466932836941650E+004	-2.8726873E-001	1.2148365E+000	0.0000000E+000	-1.5021052E+000
3	0	1.466982836941045E+004	-2.8686002E-001	1.2146647E+000	0.0000000E+000	-1.5015247E+000
3	0	1.467032836940439E+004	-2.8637871E-001	1.2149396E+000	0.0000000E+000	-1.5013183E+000
3	0	1.467082836939834E+004	-2.8587064E-001	1.2143555E+000	0.0000000E+000	-1.5002261E+000
3	0	1.467132836939229E+004	-2.8556505E-001	1.2143211E+000	0.0000000E+000	-1.4998862E+000
3	0	1.467182836938623E+004	-2.8492326E-001	1.2141837E+000	0.0000000E+000	-1.4991069E+000
3	0	1.467232836938018E+004	-2.8435034E-001	1.2144243E+000	0.0000000E+000	-1.4987745E+000
3	0	1.467282836937413E+004	-2.8386897E-001	1.2146990E+000	0.0000000E+000	-1.4985681E+000
3	0	1.467332836936807E+004	-2.8337625E-001	1.2142180E+000	0.0000000E+000	-1.4975942E+000
3	0	1.467382836936202E+004	-2.8304008E-001	1.2142525E+000	0.0000000E+000	-1.4972925E+000
3	0	1.467432836935596E+004	-2.8267717E-001	1.2139088E+000	0.0000000E+000	-1.4965860E+000
3	0	1.467482836934991E+004	-2.8218061E-001	1.2139431E+000	0.0000000E+000	-1.4961238E+000
3	0	1.467532836934386E+004	-2.8181389E-001	1.2138400E+000	0.0000000E+000	-1.4956539E+000
3	0	1.467582836933780E+004	-2.8124860E-001	1.2139088E+000	0.0000000E+000	-1.4951574E+000
3	0	1.467632836933175E+004	-2.8076720E-001	1.2138400E+000	0.0000000E+000	-1.4946072E+000
3	0	1.467682836932570E+004	-2.8058001E-001	1.2135308E+000	0.0000000E+000	-1.4941108E+000
3	0	1.467732836931964E+004	-2.8013313E-001	1.2135996E+000	0.0000000E+000	-1.4937327E+000
3	0	1.467782836931359E+004	-2.7964795E-001	1.2135308E+000	0.0000000E+000	-1.4931787E+000
3	0	1.467832836930754E+004	-2.7890307E-001	1.2136682E+000	0.0000000E+000	-1.4925714E+000
3	0	1.467882836930148E+004	-2.7850965E-001	1.2134277E+000	0.0000000E+000	-1.4919373E+000
3	0	1.467932836929543E+004	-2.7801687E-001	1.2138400E+000	0.0000000E+000	-1.4918568E+000
3	0	1.467982836928937E+004	-2.7770746E-001	1.2135308E+000	0.0000000E+000	-1.4912382E+000
3	0	1.468032836928332E+004	-2.7745536E-001	1.2131528E+000	0.0000000E+000	-1.4906081E+000
3	0	1.468082836927727E+004	-2.7702367E-001	1.2131528E+000	0.0000000E+000	-1.4901764E+000
3	0	1.468132836927121E+004	-2.7628639E-001	1.2135308E+000	0.0000000E+000	-1.4898171E+000
3	0	1.468182836926516E+004	-2.7580130E-001	1.2133934E+000	0.0000000E+000	-1.4891948E+000
3	0	1.468232836925911E+004	-2.7559119E-001	1.2131872E+000	0.0000000E+000	-1.4887784E+000
3	0	1.468282836925305E+004	-2.7530861E-001	1.2127062E+000	0.0000000E+000	-1.4880148E+000
3	0	1.468332836924700E+004	-2.7471650E-001	1.2131186E+000	0.0000000E+000	-1.4878350E+000
3	0	1.468382836924095E+004	-2.7434593E-001	1.2130498E+000	0.0000000E+000	-1.4873958E+000
3	0	1.468432836923489E+004	-2.7383405E-001	1.2130154E+000	0.0000000E+000	-1.4868495E+000
3	0	1.468482836922884E+004	-2.7337566E-001	1.2132559E+000	0.0000000E+000	-1.4866315E+000
3	0	1.468532836922279E+004	-2.7331454E-001	1.2126031E+000	0.0000000E+000	-1.4859176E+000
3	0	1.468582836921673E+004	-2.7295935E-001	1.2128437E+000	0.0000000E+000	-1.4858030E+000
3	0	1.468632836921068E+004	-2.7242446E-001	1.2125688E+000	0.0000000E+000	-1.4849932E+000
3	0	1.468682836920462E+004	-2.7171397E-001	1.2130154E+000	0.0000000E+000	-1.4847294E+000
3	0	1.468732836919857E+004	-2.7140078E-001	1.2131186E+000	0.0000000E+000	-1.4845194E+000
3	0	1.468782836919252E+004	-2.7123648E-001	1.2126374E+000	0.0000000E+000	-1.4838738E+000
3	0	1.468832836918646E+004	-2.7094617E-001	1.2126374E+000	0.0000000E+000	-1.4835836E+000
3	0	1.468882836918041E+004	-2.7054128E-001	1.2126718E+000	0.0000000E+000	-1.4832131E+000
3	0	1.468932836917436E+004	-2.7020130E-001	1.2123626E+000	0.0000000E+000	-1.4825640E+000
3	0	1.468982836916830E+004	-2.6971611E-001	1.2122939E+000	0.0000000E+000	-1.4820100E+000
3	0	1.469032836916225E+004	-2.6926923E-001	1.2126374E+000	0.0000000E+000	-1.4819067E+000
3	0	1.469082836915620E+004	-2.6890633E-001	1.2123969E+000	0.0000000E+000	-1.4813032E+000
3	0	1.469132836915014E+004	-2.6860073E-001	1.2124656E+000	0.0000000E+000	-1.4810663E+000
3	0	1.469182836914409E+004	-2.6818055E-001	1.2123626E+000	0.0000000E+000	-1.4805431E+000
3	0	1.469232836913802E+004	-2.6790166E-001	1.2124656E+000	0.0000000E+000	-1.4803673E+000
3	0	1.469282836913197E+004	-2.6747385E-001	1.2123626E+000	0.0000000E+000	-1.4798365E+000
3	0	1.469332836912591E+004	-2.6715297E-001	1.2123969E+000	0.0000000E+000	-1.4795499E+000
3	0	1.469382836911986E+004	-2.6691610E-001	1.2120533E+000	0.0000000E+000	-1.4789693E+000
3	0	1.469432836911381E+004	-2.6646918E-001	1.2122939E+000	0.0000000E+000	-1.4787631E+000
3	0	1.469482836910775E+004	-2.6623619E-001	1.2121564E+000	0.0000000E+000	-1.4783926E+000
3	0	1.469532836910170E+004	-2.6566699E-001	1.2121907E+000	0.0000000E+000	-1.4778577E+000
3	0	1.469582836909565E+004	-2.6554859E-001	1.2121220E+000	0.0000000E+000	-1.4776706E+000
3	0	1.469632836908959E+004	-2.6518568E-001	1.2118815E+000	0.0000000E+000	-1.4770672E+000
3	0	1.469682836908354E+004	-2.6483428E-001	1.2119846E+000	0.0000000E+000	-1.4768189E+000
3	0	1.469732836907748E+004	-2.6456302E-001	1.2117784E+000	0.0000000E+000	-1.4763415E+000
3	0	1.469782836907143E+004	-2.6401302E-001	1.2122251E+000	0.0000000E+000	-1.4762381E+000
3	0	1.469832836906538E+004	-2.6386401E-001	1.2117784E+000	0.0000000E+000	-1.4756424E+000
3	0	1.469882836905932E+004	-2.6351643E-001	1.2118127E+000	0.0000000E+000	-1.4753292E+000
3	0	1.469932836905327E+004	-2.6296633E-001	1.2118815E+000	0.0000000E+000	-1.4748478E+000
3	0	1.469982836904722E+004	-2.6268363E-001	1.2120878E+000	0.0000000E+000	-1.4747714E+000
3	0	1.470032836904116E+004	-2.6237807E-001	1.2117784E+000	0.0000000E+000	-1.4741565E+000
3	0	1.470082836903511E+004	-2.6209924E-001	1.2117784E+000	0.0000000E+000	-1.4738777E+000
3	0	1.470132836902906E+004	-2.6187766E-001	1.2116754E+000	0.0000000E+000	-1.4735531E+000
3	0	1.470182836902300E+004	-2.6144597E-001	1.2118815E+000	0.0000000E+000	-1.4733275E+000
3	0	1.470232836901695E+004	-2.6125506E-001	1.2115723E+000	0.0000000E+000	-1.4728273E+000
3	0	1.470282836901089E+004	-2.6079658E-001	1.2114692E+000	0.0000000E+000	-1.4722657E+000
3	0	1.470332836900484E+004	-2.6033825E-001	1.2117097E+000	0.0000000E+000	-1.4720480E+000
3	0	1.470382836899879E+004	-2.6026568E-001	1.2115036E+000	0.0000000E+000	-1.4717693E+000
3	0	1.470432836899273E+004	-2.5980347E-001	1.2117097E+000	0.0000000E+000	-1.4715133E+000
3	0	1.470482836898668E+004	-2.5969648E-001	1.2115036E+000	0.0000000E+000	-1.4712001E+000
3	0	1.470532836898063E+004	-2.5946727E-001	1.2114005E+000	0.0000000E+000	-1.4708678E+000
3	0	1.470582836897457E+004	-2.5919610E-001	1.2114005E+000	0.0000000E+000	-1.4705966E+000
3	0	1.470632836896852E+004	-2.5889051E-001	1.2112287E+000	0.0000000E+000	-1.4701192E+000
3	0	1.470682836896247E+004	-2.5851992E-001	1.2111599E+000	0.0000000E+000	-1.4696798E+000
3	0	1.470732836895641E+004	-2.5837100E-001	1.2111943E+000	0.0000000E+000	-1.4695653E+000
3	0	1.470782836895036E+004	-2.5806913E-001	1.2111256E+000	0.0000000E+000	-1.4691948E+000
3	0	1.470832836894431E+004	-2.5751531E-001	1.2111599E+000	0.0000000E+000	-1.4686753E+000
3	0	1.470882836893825E+004	-2.5728992E-001	1.2110225E+000	0.0000000E+000	-1.4683124E+000
3	0	1.470932836893220E+004	-2.5695756E-001	1.2111256E+000	0.0000000E+000	-1.4680831E+000
3	0	1.470982836892614E+004	-2.5688502E-001	1.2111599E+000	0.0000000E+000	-1.4680450E+000
3	0	1.471032836892009E+004	-2.5629675E-001	1.2110568E+000	0.0000000E+000	-1.4673536E+000
3	0	1.471082836891404E+004	-2.5597587E-001	1.2112287E+000	0.0000000E+000	-1.4672046E+000
3	0	1.471132836890798E+004	-2.5584978E-001	1.2110912E+000	0.0000000E+000	-1.4669409E+000
3	0	1.471182836890193E+004	-2.5545636E-001	1.2111256E+000	0.0000000E+000	-1.4665819E+000
3	0	1.471232836889588E+004	-2.5523478E-001	1.2109882E+000	0.0000000E+000	-1.4662230E+000
3	0	1.471282836888982E+004	-2.5481465E-001	1.2111256E+000	0.0000000E+000	-1.4659402E+000
3	0	1.471332836888377E+004	-2.5474200E-001	1.2106102E+000	0.0000000E+000	-1.4653522E+000
3	0	1.471382836887772E+004	-2.5458917E-001	1.2108164E+000	0.0000000E+000	-1.4654056E+000
3	0	1.471432836887166E+004	-2.5424159E-001	1.2110568E+000	0.0000000E+000	-1.4652984E+000
3	0	1.471482836886561E+004	-2.5395897E-001	1.2108507E+000	0.0000000E+000	-1.4648097E+000
3	0	1.471532836885955E+004	-2.5381759E-001	1.2106446E+000	0.0000000E+000	-1.4644622E+000
3	0	1.471582836885350E+004	-2.5347382E-001	1.2106789E+000	0.0000000E+000	-1.4641528E+000
3	0	1.471632836884745E+004	-2.5338978E-001	1.2104384E+000	0.0000000E+000	-1.4638281E+000
3	0	1.471682836884139E+004	-2.5297341E-001	1.2106446E+000	0.0000000E+000	-1.4636180E+000
3	0	1.471732836883534E+004	-2.5232020E-001	1.2109882E+000	0.0000000E+000	-1.4633083E+000
3	0	1.471782836882929E+004	-2.5213301E-001	1.2109194E+000	0.0000000E+000	-1.4630524E+000
3	0	1.471832836882323E+004	-2.5191531E-001	1.2107819E+000	0.0000000E+000	-1.4626973E+000
3	0	1.471882836881718E+004	-2.5185794E-001	1.2104384E+000	0.0000000E+000	-1.4622962E+000
3	0	1.471932836881113E+004	-2.5161353E-001	1.2103697E+000	0.0000000E+000	-1.4619832E+000
3	0	1.471982836880507E+004	-2.5127736E-001	1.2101978E+000	0.0000000E+000	-1.4614751E+000
3	0	1.472032836879902E+004	-2.5097555E-001	1.2105415E+000	0.0000000E+000	-1.4615171E+000
3	0	1.472082836879297E+004	-2.5068524E-001	1.2105070E+000	0.0000000E+000	-1.4611923E+000
3	0	1.472132836878691E+004	-2.5057834E-001	1.2103697E+000	0.0000000E+000	-1.4609480E+000
3	0	1.472182836878086E+004	-2.5018477E-001	1.2104039E+000	0.0000000E+000	-1.4605887E+000
3	0	1.472232836877480E+004	-2.4999766E-001	1.2103697E+000	0.0000000E+000	-1.4603673E+000
3	0	1.472282836876875E+004	-2.4991746E-001	1.2104384E+000	0.0000000E+000	-1.4603559E+000
3	0	1.472332836876270E+004	-2.4970730E-001	1.2102666E+000	0.0000000E+000	-1.4599739E+000
3	0	1.472382836875664E+004	-2.4945907E-001	1.2100948E+000	0.0000000E+000	-1.4595538E+000
3	0	1.472432836875059E+004	-2.4897009E-001	1.2101635E+000	0.0000000E+000	-1.4591336E+000
3	0	1.472482836874454E+004	-2.4862249E-001	1.2105070E+000	0.0000000E+000	-1.4591296E+000
3	0	1.472532836873848E+004	-2.4848111E-001	1.2103009E+000	0.0000000E+000	-1.4587821E+000
3	0	1.472582836873243E+004	-2.4824817E-001	1.2103697E+000	0.0000000E+000	-1.4586179E+000
3	0	1.472632836872638E+004	-2.4799220E-001	1.2104039E+000	0.0000000E+000	-1.4583961E+000
3	0	1.472682836872032E+004	-2.4778971E-001	1.2101978E+000	0.0000000E+000	-1.4579875E+000
3	0	1.472732836871427E+004	-2.4773249E-001	1.2101978E+000	0.0000000E+000	-1.4579303E+000
3	0	1.472782836870821E+004	-2.4721673E-001	1.2101978E+000	0.0000000E+000	-1.4574145E+000
3	0	1.472832836870216E+004	-2.4706012E-001	1.2103353E+000	0.0000000E+000	-1.4573953E+000
3	0	1.472882836869611E+004	-2.4694172E-001	1.2099574E+000	0.0000000E+000	-1.4568990E+000
3	0	1.472932836869005E+004	-2.4661702E-001	1.2101291E+000	0.0000000E+000	-1.4567461E+000
3	0	1.472982836868400E+004	-2.4620445E-001	1.2101978E+000	0.0000000E+000	-1.4564023E+000
3	0	1.473032836867795E+004	-2.4590653E-001	1.2103353E+000	0.0000000E+000	-1.4562418E+000
3	0	1.473082836867189E+004	-2.4576522E-001	1.2102321E+000	0.0000000E+000	-1.4559973E+000
3	0	1.473132836866584E+004	-2.4583393E-001	1.2101978E+000	0.0000000E+000	-1.4560318E+000
3	0	1.473182836865979E+004	-2.4565056E-001	1.2098542E+000	0.0000000E+000	-1.4555048E+000
3	0	1.473232836865373E+004	-2.4505085E-001	1.2101291E+000	0.0000000E+000	-1.4551799E+000
3	0	1.473282836864768E+004	-2.4508905E-001	1.2101635E+000	0.0000000E+000	-1.4552525E+000
3	0	1.473332836864163E+004	-2.4471468E-001	1.2101978E+000	0.0000000E+000	-1.4549124E+000
3	0	1.473382836863557E+004	-2.4461916E-001	1.2097856E+000	0.0000000E+000	-1.4544047E+000
3	0	1.473432836862952E+004	-2.4439386E-001	1.2098199E+000	0.0000000E+000	-1.4542137E+000
3	0	1.473482836862346E+004	-2.4389346E-001	1.2098542E+000	0.0000000E+000	-1.4537477E+000
3	0	1.473532836861741E+004	-2.4392010E-001	1.2098199E+000	0.0000000E+000	-1.4537400E+000
3	0	1.473582836861136E+004	-2.4388577E-001	1.2095793E+000	0.0000000E+000	-1.4534651E+000
3	0	1.473632836860530E+004	-2.4358398E-001	1.2095450E+000	0.0000000E+000	-1.4531291E+000
3	0	1.473682836859925E+004	-2.4337009E-001	1.2099229E+000	0.0000000E+000	-1.4532930E+000
3	0	1.473732836859320E+004	-2.4301487E-001	1.2097511E+000	0.0000000E+000	-1.4527659E+000
3	0	1.473782836858714E+004	-2.4285440E-001	1.2098886E+000	0.0000000E+000	-1.4527429E+000
3	0	1.473832836858109E+004	-2.4252969E-001	1.2098199E+000	0.0000000E+000	-1.4523497E+000
3	0	1.473882836857504E+004	-2.4238451E-001	1.2099229E+000	0.0000000E+000	-1.4523075E+000
3	0	1.473932836856898E+004	-2.4207130E-001	1.2098199E+000	0.0000000E+000	-1.4518912E+000
3	0	1.473982836856293E+004	-2.4180390E-001	1.2097168E+000	0.0000000E+000	-1.4515207E+000
3	0	1.474032836855687E+004	-2.4176191E-001	1.2096825E+000	0.0000000E+000	-1.4514444E+000
3	0	1.474082836855082E+004	-2.4130732E-001	1.2098886E+000	0.0000000E+000	-1.4511960E+000
3	0	1.474132836854477E+004	-2.4131873E-001	1.2097856E+000	0.0000000E+000	-1.4511043E+000
3	0	1.474182836853871E+004	-2.4118884E-001	1.2096825E+000	0.0000000E+000	-1.4508713E+000
3	0	1.474232836853266E+004	-2.4078014E-001	1.2097856E+000	0.0000000E+000	-1.4505657E+000
3	0	1.474282836852661E+004	-2.4073045E-001	1.2095107E+000	0.0000000E+000	-1.4502411E+000
3	0	1.474332836852055E+004	-2.4031414E-001	1.2098542E+000	0.0000000E+000	-1.4501684E+000
3	0	1.474382836851450E+004	-2.4034853E-001	1.2099229E+000	0.0000000E+000	-1.4502715E+000
3	0	1.474432836850845E+004	-2.4009255E-001	1.2094762E+000	0.0000000E+000	-1.4495687E+000
3	0	1.474482836850239E+004	-2.3997416E-001	1.2095107E+000	0.0000000E+000	-1.4494848E+000
3	0	1.474532836849634E+004	-2.3974496E-001	1.2094076E+000	0.0000000E+000	-1.4491525E+000
3	0	1.474582836849029E+004	-2.3931333E-001	1.2095793E+000	0.0000000E+000	-1.4488927E+000
3	0	1.474632836848423E+004	-2.3938206E-001	1.2095107E+000	0.0000000E+000	-1.4488927E+000
3	0	1.474682836847818E+004	-2.3903835E-001	1.2096825E+000	0.0000000E+000	-1.4487208E+000
3	0	1.474732836847212E+004	-2.3878616E-001	1.2095793E+000	0.0000000E+000	-1.4483654E+000
3	0	1.474782836846607E+004	-2.3874035E-001	1.2095450E+000	0.0000000E+000	-1.4482853E+000
3	0	1.474832836846002E+004	-2.3825517E-001	1.2098542E+000	0.0000000E+000	-1.4481094E+000
3	0	1.474882836845396E+004	-2.3837365E-001	1.2096480E+000	0.0000000E+000	-1.4480217E+000
3	0	1.474932836844791E+004	-2.3832016E-001	1.2093731E+000	0.0000000E+000	-1.4476932E+000
3	0	1.474982836844186E+004	-2.3815976E-001	1.2096138E+000	0.0000000E+000	-1.4477736E+000
3	0	1.475032836843580E+004	-2.3782358E-001	1.2096480E+000	0.0000000E+000	-1.4474716E+000
3	0	1.475082836842975E+004	-2.3775098E-001	1.2094419E+000	0.0000000E+000	-1.4471929E+000
3	0	1.475132836842370E+004	-2.3754469E-001	1.2092358E+000	0.0000000E+000	-1.4467804E+000
3	0	1.475182836841764E+004	-2.3739576E-001	1.2093731E+000	0.0000000E+000	-1.4467689E+000
3	0	1.475232836841159E+004	-2.3694499E-001	1.2095793E+000	0.0000000E+000	-1.4465244E+000
3	0	1.475282836840554E+004	-2.3689911E-001	1.2093045E+000	0.0000000E+000	-1.4462036E+000
3	0	1.475332836839948E+004	-2.3649421E-001	1.2094419E+000	0.0000000E+000	-1.4459361E+000
3	0	1.475382836839343E+004	-2.3623443E-001	1.2094076E+000	0.0000000E+000	-1.4456420E+000
3	0	1.475432836838737E+004	-2.3614652E-001	1.2094762E+000	0.0000000E+000	-1.4456228E+000
3	0	1.475482836838132E+004	-2.3621532E-001	1.2091670E+000	0.0000000E+000	-1.4453824E+000
3	0	1.475532836837527E+004	-2.3607789E-001	1.2094419E+000	0.0000000E+000	-1.4455198E+000
3	0	1.475582836836921E+004	-2.3565382E-001	1.2094076E+000	0.0000000E+000	-1.4450614E+000
3	0	1.475632836836316E+004	-2.3564622E-001	1.2093045E+000	0.0000000E+000	-1.4449507E+000
3	0	1.475682836835711E+004	-2.3529862E-001	1.2092013E+000	0.0000000E+000	-1.4445000E+000
3	0	1.475732836835105E+004	-2.3533674E-001	1.2090983E+000	0.0000000E+000	-1.4444351E+000
3	0	1.475782836834500E+004	-2.3526421E-001	1.2092358E+000	0.0000000E+000	-1.4445000E+000
3	0	1.475832836833895E+004	-2.3514193E-001	1.2091670E+000	0.0000000E+000	-1.4443090E+000
3	0	1.475882836833289E+004	-2.3474465E-001	1.2089609E+000	0.0000000E+000	-1.4437056E+000
3	0	1.475932836832684E+004	-2.3461863E-001	1.2092358E+000	0.0000000E+000	-1.4438545E+000
3	0	1.475982836832078E+004	-2.3444666E-001	1.2091670E+000	0.0000000E+000	-1.4436136E+000
3	0	1.476032836831473E+004	-2.3418315E-001	1.2090983E+000	0.0000000E+000	-1.4432815E+000
3	0	1.476082836830868E+004	-2.3397686E-001	1.2095450E+000	0.0000000E+000	-1.4435219E+000
3	0	1.476132836830262E+004	-2.3383935E-001	1.2092701E+000	0.0000000E+000	-1.4431095E+000
3	0	1.476182836829657E+004	-2.3372863E-001	1.2092013E+000	0.0000000E+000	-1.4429300E+000
3	0	1.476232836829052E+004	-2.3363687E-001	1.2090296E+000	0.0000000E+000	-1.4426664E+000
3	0	1.476282836828446E+004	-2.3360254E-001	1.2088234E+000	0.0000000E+000	-1.4424260E+000
3	0	1.476332836827841E+004	-2.3346116E-001	1.2090296E+000	0.0000000E+000	-1.4424907E+000
3	0	1.476382836827236E+004	-2.3299897E-001	1.2088921E+000	0.0000000E+000	-1.4418911E+000
3	0	1.476432836826630E+004	-2.3286527E-001	1.2093389E+000	0.0000000E+000	-1.4422042E+000
3	0	1.476482836826025E+004	-2.3268957E-001	1.2091670E+000	0.0000000E+000	-1.4418566E+000
3	0	1.476532836825420E+004	-2.3272015E-001	1.2090983E+000	0.0000000E+000	-1.4418185E+000
3	0	1.476582836824814E+004	-2.3248708E-001	1.2086860E+000	0.0000000E+000	-1.4411731E+000
3	0	1.476632836824209E+004	-2.3210897E-001	1.2092013E+000	0.0000000E+000	-1.4413103E+000
3	0	1.476682836823603E+004	-2.3203638E-001	1.2093731E+000	0.0000000E+000	-1.4414095E+000
3	0	1.476732836822998E+004	-2.3191790E-001	1.2089952E+000	0.0000000E+000	-1.4409131E+000
3	0	1.476782836822393E+004	-2.3152830E-001	1.2094419E+000	0.0000000E+000	-1.4409702E+000
3	0	1.476832836821787E+004	-2.3156649E-001	1.2089609E+000	0.0000000E+000	-1.4405274E+000
3	0	1.476882836821182E+004	-2.3155887E-001	1.2087203E+000	0.0000000E+000	-1.4402792E+000
3	0	1.476932836820577E+004	-2.3133349E-001	1.2089266E+000	0.0000000E+000	-1.4402601E+000
3	0	1.476982836819971E+004	-2.3134878E-001	1.2087203E+000	0.0000000E+000	-1.4400691E+000
3	0	1.477032836819366E+004	-2.3084070E-001	1.2090640E+000	0.0000000E+000	-1.4399047E+000
3	0	1.477082836818761E+004	-2.3064971E-001	1.2089952E+000	0.0000000E+000	-1.4396449E+000
3	0	1.477132836818155E+004	-2.3050840E-001	1.2092358E+000	0.0000000E+000	-1.4397442E+000
3	0	1.477182836817550E+004	-2.3061539E-001	1.2085485E+000	0.0000000E+000	-1.4391639E+000
3	0	1.477232836816944E+004	-2.3045111E-001	1.2088578E+000	0.0000000E+000	-1.4393089E+000
3	0	1.477282836816339E+004	-2.3009962E-001	1.2089609E+000	0.0000000E+000	-1.4390604E+000
3	0	1.477332836815734E+004	-2.2983223E-001	1.2092013E+000	0.0000000E+000	-1.4390335E+000
3	0	1.477382836815128E+004	-2.3006910E-001	1.2088921E+000	0.0000000E+000	-1.4389613E+000
3	0	1.477432836814523E+004	-2.2977492E-001	1.2088578E+000	0.0000000E+000	-1.4386327E+000
3	0	1.477482836813918E+004	-2.2968331E-001	1.2088921E+000	0.0000000E+000	-1.4385754E+000
3	0	1.477532836813312E+004	-2.2941965E-001	1.2089952E+000	0.0000000E+000	-1.4384148E+000
3	0	1.477582836812707E+004	-2.2954574E-001	1.2089609E+000	0.0000000E+000	-1.4385066E+000
3	0	1.477632836812102E+004	-2.2906823E-001	1.2089266E+000	0.0000000E+000	-1.4379948E+000
3	0	1.477682836811496E+004	-2.2908734E-001	1.2089952E+000	0.0000000E+000	-1.4380826E+000
3	0	1.477732836810891E+004	-2.2883135E-001	1.2088234E+000	0.0000000E+000	-1.4376547E+000
3	0	1.477782836810286E+004	-2.2886963E-001	1.2089609E+000	0.0000000E+000	-1.4378306E+000
3	0	1.477832836809680E+004	-2.2835013E-001	1.2089609E+000	0.0000000E+000	-1.4373111E+000
3	0	1.477882836809075E+004	-2.2842655E-001	1.2088578E+000	0.0000000E+000	-1.4372844E+000
3	0	1.477932836808469E+004	-2.2827373E-001	1.2088578E+000	0.0000000E+000	-1.4371315E+000
3	0	1.477982836807864E+004	-2.2824316E-001	1.2087203E+000	0.0000000E+000	-1.4369634E+000
3	0	1.478032836807259E+004	-2.2818585E-001	1.2086860E+000	0.0000000E+000	-1.4368719E+000
3	0	1.478082836806653E+004	-2.2802918E-001	1.2087203E+000	0.0000000E+000	-1.4367495E+000
3	0	1.478132836806048E+004	-2.2771217E-001	1.2088578E+000	0.0000000E+000	-1.4365699E+000
3	0	1.478182836805443E+004	-2.2765493E-001	1.2086172E+000	0.0000000E+000	-1.4362721E+000
3	0	1.478232836804837E+004	-2.2761667E-001	1.2085829E+000	0.0000000E+000	-1.4361995E+000
3	0	1.478282836804232E+004	-2.2755937E-001	1.2085141E+000	0.0000000E+000	-1.4360734E+000
3	0	1.478332836803627E+004	-2.2719654E-001	1.2086172E+000	0.0000000E+000	-1.4358138E+000
3	0	1.478382836803021E+004	-2.2697489E-001	1.2088921E+000	0.0000000E+000	-1.4358670E+000
3	0	1.478432836802416E+004	-2.2692908E-001	1.2086172E+000	0.0000000E+000	-1.4355463E+000
3	0	1.478482836801810E+004	-2.2678778E-001	1.2091670E+000	0.0000000E+000	-1.4359548E+000
3	0	1.478532836801205E+004	-2.2677247E-001	1.2086860E+000	0.0000000E+000	-1.4354584E+000
3	0	1.478582836800600E+004	-2.2656618E-001	1.2088234E+000	0.0000000E+000	-1.4353896E+000
3	0	1.478632836799994E+004	-2.2642487E-001	1.2084799E+000	0.0000000E+000	-1.4349048E+000
3	0	1.478682836799389E+004	-2.2626446E-001	1.2084799E+000	0.0000000E+000	-1.4347444E+000
3	0	1.478732836798784E+004	-2.2603139E-001	1.2087890E+000	0.0000000E+000	-1.4348204E+000
3	0	1.478782836798178E+004	-2.2618808E-001	1.2084799E+000	0.0000000E+000	-1.4346679E+000
3	0	1.478832836797573E+004	-2.2623380E-001	1.2084799E+000	0.0000000E+000	-1.4347137E+000
3	0	1.478882836796968E+004	-2.2588621E-001	1.2086860E+000	0.0000000E+000	-1.4345722E+000
3	0	1.478932836796362E+004	-2.2554629E-001	1.2085485E+000	0.0000000E+000	-1.4340948E+000
3	0	1.478982836795757E+004	-2.2549661E-001	1.2087548E+000	0.0000000E+000	-1.4342514E+000
3	0	1.479032836795152E+004	-2.2530180E-001	1.2086517E+000	0.0000000E+000	-1.4339535E+000
3	0	1.479082836794546E+004	-2.2530560E-001	1.2085829E+000	0.0000000E+000	-1.4338884E+000
3	0	1.479132836793941E+004	-2.2517960E-001	1.2086860E+000	0.0000000E+000	-1.4338655E+000
3	0	1.479182836793335E+004	-2.2511080E-001	1.2085485E+000	0.0000000E+000	-1.4336593E+000
3	0	1.479232836792730E+004	-2.2486252E-001	1.2086172E+000	0.0000000E+000	-1.4334798E+000
3	0	1.479282836792125E+004	-2.2479379E-001	1.2086172E+000	0.0000000E+000	-1.4334110E+000
3	0	1.479332836791519E+004	-2.2453782E-001	1.2088578E+000	0.0000000E+000	-1.4333956E+000
3	0	1.479382836790914E+004	-2.2460653E-001	1.2084454E+000	0.0000000E+000	-1.4330519E+000
3	0	1.479432836790309E+004	-2.2465241E-001	1.2085829E+000	0.0000000E+000	-1.4332353E+000
3	0	1.479482836789703E+004	-2.2436592E-001	1.2083768E+000	0.0000000E+000	-1.4327427E+000
3	0	1.479532836789098E+004	-2.2412904E-001	1.2082736E+000	0.0000000E+000	-1.4324027E+000
3	0	1.479582836788493E+004	-2.2411382E-001	1.2082736E+000	0.0000000E+000	-1.4323875E+000
3	0	1.479632836787887E+004	-2.2379293E-001	1.2086172E+000	0.0000000E+000	-1.4324101E+000
3	0	1.479682836787282E+004	-2.2373943E-001	1.2087548E+000	0.0000000E+000	-1.4324942E+000
3	0	1.479732836786676E+004	-2.2372802E-001	1.2083768E+000	0.0000000E+000	-1.4321048E+000
3	0	1.479782836786071E+004	-2.2376242E-001	1.2084111E+000	0.0000000E+000	-1.4321735E+000
3	0	1.479832836785466E+004	-2.2341093E-001	1.2082736E+000	0.0000000E+000	-1.4316846E+000
3	0	1.479882836784860E+004	-2.2336124E-001	1.2084454E+000	0.0000000E+000	-1.4318067E+000
3	0	1.479932836784255E+004	-2.2317794E-001	1.2083423E+000	0.0000000E+000	-1.4315202E+000
3	0	1.479982836783650E+004	-2.2327724E-001	1.2082050E+000	0.0000000E+000	-1.4314822E+000
3	0	1.480032836783044E+004	-2.2281885E-001	1.2084454E+000	0.0000000E+000	-1.4312643E+000
3	0	1.480082836782439E+004	-2.2264314E-001	1.2085141E+000	0.0000000E+000	-1.4311572E+000
3	0	1.480132836781834E+004	-2.2255145E-001	1.2084799E+000	0.0000000E+000	-1.4310313E+000
3	0	1.480182836781228E+004	-2.2245595E-001	1.2086860E+000	0.0000000E+000	-1.4311420E+000
3	0	1.480232836780623E+004	-2.2240247E-001	1.2087203E+000	0.0000000E+000	-1.4311228E+000
3	0	1.480282836780018E+004	-2.2240625E-001	1.2084454E+000	0.0000000E+000	-1.4308517E+000
3	0	1.480332836779412E+004	-2.2218095E-001	1.2083768E+000	0.0000000E+000	-1.4305577E+000
3	0	1.480382836778807E+004	-2.2204718E-001	1.2082393E+000	0.0000000E+000	-1.4302865E+000
3	0	1.480432836778201E+004	-2.2206247E-001	1.2083423E+000	0.0000000E+000	-1.4304048E+000
3	0	1.480482836777596E+004	-2.2194026E-001	1.2082393E+000	0.0000000E+000	-1.4301796E+000
3	0	1.480532836776991E+004	-2.2178747E-001	1.2083768E+000	0.0000000E+000	-1.4301642E+000
3	0	1.480582836776385E+004	-2.2148567E-001	1.2086172E+000	0.0000000E+000	-1.4301028E+000
3	0	1.480632836775780E+004	-2.2130229E-001	1.2085485E+000	0.0000000E+000	-1.4298508E+000
3	0	1.480682836775175E+004	-2.2118396E-001	1.2084799E+000	0.0000000E+000	-1.4296639E+000
3	0	1.480732836774569E+004	-2.2124119E-001	1.2080331E+000	0.0000000E+000	-1.4292743E+000
3	0	1.480782836773964E+004	-2.2108078E-001	1.2084454E+000	0.0000000E+000	-1.4295262E+000
3	0	1.480832836773359E+004	-2.2103877E-001	1.2083423E+000	0.0000000E+000	-1.4293811E+000
3	0	1.480882836772753E+004	-2.2056128E-001	1.2087890E+000	0.0000000E+000	-1.4293503E+000
3	0	1.480932836772148E+004	-2.2061858E-001	1.2082736E+000	0.0000000E+000	-1.4288923E+000
3	0	1.480982836771543E+004	-2.2059187E-001	1.2084111E+000	0.0000000E+000	-1.4290030E+000
3	0	1.481032836770937E+004	-2.2053450E-001	1.2083768E+000	0.0000000E+000	-1.4289112E+000
3	0	1.481082836770332E+004	-2.2044288E-001	1.2083768E+000	0.0000000E+000	-1.4288197E+000
3	0	1.481132836769726E+004	-2.2050010E-001	1.2082050E+000	0.0000000E+000	-1.4287051E+000
3	0	1.481182836769121E+004	-2.2039700E-001	1.2082050E+000	0.0000000E+000	-1.4286020E+000
3	0	1.481232836768516E+004	-2.1997300E-001	1.2086860E+000	0.0000000E+000	-1.4286590E+000
3	0	1.481282836767910E+004	-2.2016399E-001	1.2079644E+000	0.0000000E+000	-1.4281284E+000
3	0	1.481332836767305E+004	-2.1967882E-001	1.2085485E+000	0.0000000E+000	-1.4282274E+000
3	0	1.481382836766700E+004	-2.1961010E-001	1.2085141E+000	0.0000000E+000	-1.4281242E+000
3	0	1.481432836766094E+004	-2.1934658E-001	1.2087203E+000	0.0000000E+000	-1.4280670E+000
3	0	1.481482836765489E+004	-2.1939240E-001	1.2084111E+000	0.0000000E+000	-1.4278035E+000
3	0	1.481532836764884E+004	-2.1946880E-001	1.2084111E+000	0.0000000E+000	-1.4278799E+000
3	0	1.481582836764278E+004	-2.1935040E-001	1.2082393E+000	0.0000000E+000	-1.4275897E+000
3	0	1.481632836763673E+004	-2.1944581E-001	1.2081362E+000	0.0000000E+000	-1.4275820E+000
3	0	1.481682836763067E+004	-2.1923579E-001	1.2082393E+000	0.0000000E+000	-1.4274751E+000
3	0	1.481732836762462E+004	-2.1907151E-001	1.2082050E+000	0.0000000E+000	-1.4272765E+000
3	0	1.481782836761857E+004	-2.1873912E-001	1.2084454E+000	0.0000000E+000	-1.4271846E+000
3	0	1.481832836761251E+004	-2.1871242E-001	1.2083768E+000	0.0000000E+000	-1.4270892E+000
3	0	1.481882836760646E+004	-2.1886522E-001	1.2082393E+000	0.0000000E+000	-1.4271045E+000
3	0	1.481932836760041E+004	-2.1880792E-001	1.2082050E+000	0.0000000E+000	-1.4270129E+000
3	0	1.481982836759435E+004	-2.1871622E-001	1.2078270E+000	0.0000000E+000	-1.4265432E+000
3	0	1.482032836758830E+004	-2.1828462E-001	1.2084111E+000	0.0000000E+000	-1.4266957E+000
3	0	1.482082836758225E+004	-2.1845643E-001	1.2081019E+000	0.0000000E+000	-1.4265583E+000
3	0	1.482132836757619E+004	-2.1832281E-001	1.2079301E+000	0.0000000E+000	-1.4262528E+000
3	0	1.482182836757014E+004	-2.1830745E-001	1.2081705E+000	0.0000000E+000	-1.4264780E+000
3	0	1.482232836756409E+004	-2.1831512E-001	1.2079301E+000	0.0000000E+000	-1.4262452E+000
3	0	1.482282836755803E+004	-2.1823493E-001	1.2078270E+000	0.0000000E+000	-1.4260619E+000
3	0	1.482332836755198E+004	-2.1795993E-001	1.2081019E+000	0.0000000E+000	-1.4260617E+000
3	0	1.482382836754592E+004	-2.1771924E-001	1.2083080E+000	0.0000000E+000	-1.4260272E+000
3	0	1.482432836753987E+004	-2.1763523E-001	1.2079644E+000	0.0000000E+000	-1.4255997E+000
3	0	1.482482836753382E+004	-2.1755883E-001	1.2082393E+000	0.0000000E+000	-1.4257982E+000
3	0	1.482532836752776E+004	-2.1729904E-001	1.2085141E+000	0.0000000E+000	-1.4258132E+000
3	0	1.482582836752171E+004	-2.1710417E-001	1.2085485E+000	0.0000000E+000	-1.4256527E+000
3	0	1.482632836751566E+004	-2.1708895E-001	1.2083423E+000	0.0000000E+000	-1.4254313E+000
3	0	1.482682836750960E+004	-2.1700494E-001	1.2080331E+000	0.0000000E+000	-1.4250380E+000
3	0	1.482732836750355E+004	-2.1706985E-001	1.2080675E+000	0.0000000E+000	-1.4251374E+000
3	0	1.482782836749750E+004	-2.1693234E-001	1.2081705E+000	0.0000000E+000	-1.4251028E+000
3	0	1.482832836749144E+004	-2.1690944E-001	1.2079301E+000	0.0000000E+000	-1.4248395E+000
3	0	1.482882836748539E+004	-2.1677575E-001	1.2078270E+000	0.0000000E+000	-1.4246027E+000
3	0	1.482932836747933E+004	-2.1666494E-001	1.2083080E+000	0.0000000E+000	-1.4249729E+000
3	0	1.482982836747328E+004	-2.1655796E-001	1.2082050E+000	0.0000000E+000	-1.4247630E+000
3	0	1.483032836746723E+004	-2.1650447E-001	1.2078958E+000	0.0000000E+000	-1.4244002E+000
3	0	1.483082836746117E+004	-2.1619126E-001	1.2083080E+000	0.0000000E+000	-1.4244993E+000
3	0	1.483132836745512E+004	-2.1614918E-001	1.2082050E+000	0.0000000E+000	-1.4243542E+000
3	0	1.483182836744907E+004	-2.1615687E-001	1.2082050E+000	0.0000000E+000	-1.4243618E+000
3	0	1.483232836744301E+004	-2.1608427E-001	1.2079988E+000	0.0000000E+000	-1.4240830E+000
3	0	1.483282836743696E+004	-2.1590096E-001	1.2082393E+000	0.0000000E+000	-1.4241402E+000
3	0	1.483332836743091E+004	-2.1593148E-001	1.2079644E+000	0.0000000E+000	-1.4238958E+000
3	0	1.483382836742485E+004	-2.1590096E-001	1.2079988E+000	0.0000000E+000	-1.4238997E+000
3	0	1.483432836741880E+004	-2.1568699E-001	1.2080675E+000	0.0000000E+000	-1.4237546E+000
3	0	1.483482836741275E+004	-2.1556866E-001	1.2081705E+000	0.0000000E+000	-1.4237392E+000
3	0	1.483532836740669E+004	-2.1537766E-001	1.2082736E+000	0.0000000E+000	-1.4236513E+000
3	0	1.483582836740064E+004	-2.1528210E-001	1.2083080E+000	0.0000000E+000	-1.4235901E+000
3	0	1.483632836739458E+004	-2.1540438E-001	1.2078958E+000	0.0000000E+000	-1.4233001E+000
3	0	1.483682836738853E+004	-2.1519047E-001	1.2079988E+000	0.0000000E+000	-1.4231892E+000
3	0	1.483732836738248E+004	-2.1515228E-001	1.2077240E+000	0.0000000E+000	-1.4228762E+000
3	0	1.483782836737642E+004	-2.1514839E-001	1.2080675E+000	0.0000000E+000	-1.4232159E+000
3	0	1.483832836737037E+004	-2.1494210E-001	1.2081019E+000	0.0000000E+000	-1.4230440E+000
3	0	1.483882836736432E+004	-2.1496120E-001	1.2078958E+000	0.0000000E+000	-1.4228569E+000
3	0	1.483932836735826E+004	-2.1489629E-001	1.2078270E+000	0.0000000E+000	-1.4227233E+000
3	0	1.483982836735221E+004	-2.1454108E-001	1.2079301E+000	0.0000000E+000	-1.4224712E+000
3	0	1.484032836734616E+004	-2.1465568E-001	1.2079988E+000	0.0000000E+000	-1.4226544E+000
3	0	1.484082836734010E+004	-2.1449140E-001	1.2078270E+000	0.0000000E+000	-1.4223183E+000
3	0	1.484132836733405E+004	-2.1440358E-001	1.2080675E+000	0.0000000E+000	-1.4224712E+000
3	0	1.484182836732799E+004	-2.1423541E-001	1.2082736E+000	0.0000000E+000	-1.4225091E+000
3	0	1.484232836732194E+004	-2.1420871E-001	1.2077926E+000	0.0000000E+000	-1.4220014E+000
3	0	1.484282836731589E+004	-2.1415901E-001	1.2078270E+000	0.0000000E+000	-1.4219860E+000
3	0	1.484332836730983E+004	-2.1414760E-001	1.2076552E+000	0.0000000E+000	-1.4218028E+000
3	0	1.484382836730378E+004	-2.1365100E-001	1.2082736E+000	0.0000000E+000	-1.4219246E+000
3	0	1.484432836729773E+004	-2.1364333E-001	1.2080331E+000	0.0000000E+000	-1.4216764E+000
3	0	1.484482836729167E+004	-2.1377330E-001	1.2076209E+000	0.0000000E+000	-1.4213941E+000
3	0	1.484532836728562E+004	-2.1383059E-001	1.2075177E+000	0.0000000E+000	-1.4213483E+000
3	0	1.484582836727957E+004	-2.1366630E-001	1.2078270E+000	0.0000000E+000	-1.4214933E+000
3	0	1.484632836727351E+004	-2.1367772E-001	1.2079644E+000	0.0000000E+000	-1.4216422E+000
3	0	1.484682836726746E+004	-2.1354410E-001	1.2077240E+000	0.0000000E+000	-1.4212681E+000
3	0	1.484732836726141E+004	-2.1320030E-001	1.2082393E+000	0.0000000E+000	-1.4214396E+000
3	0	1.484782836725535E+004	-2.1325372E-001	1.2079644E+000	0.0000000E+000	-1.4212182E+000
3	0	1.484832836724930E+004	-2.1289851E-001	1.2081019E+000	0.0000000E+000	-1.4210004E+000
3	0	1.484882836724324E+004	-2.1281824E-001	1.2081019E+000	0.0000000E+000	-1.4209201E+000
3	0	1.484932836723719E+004	-2.1286792E-001	1.2080331E+000	0.0000000E+000	-1.4209011E+000
3	0	1.484982836723114E+004	-2.1276093E-001	1.2081019E+000	0.0000000E+000	-1.4208628E+000
3	0	1.485032836722508E+004	-2.1263492E-001	1.2081362E+000	0.0000000E+000	-1.4207711E+000
3	0	1.485082836721903E+004	-2.1268073E-001	1.2079644E+000	0.0000000E+000	-1.4206451E+000
3	0	1.485132836721298E+004	-2.1247064E-001	1.2079644E+000	0.0000000E+000	-1.4204351E+000
3	0	1.485182836720692E+004	-2.1234462E-001	1.2080675E+000	0.0000000E+000	-1.4204122E+000
3	0	1.485232836720087E+004	-2.1227583E-001	1.2082050E+000	0.0000000E+000	-1.4204808E+000
3	0	1.485282836719482E+004	-2.1208864E-001	1.2082736E+000	0.0000000E+000	-1.4203622E+000
3	0	1.485332836718876E+004	-2.1234462E-001	1.2079644E+000	0.0000000E+000	-1.4203091E+000
3	0	1.485382836718271E+004	-2.1205425E-001	1.2079988E+000	0.0000000E+000	-1.4200530E+000
3	0	1.485432836717665E+004	-2.1184802E-001	1.2081019E+000	0.0000000E+000	-1.4199499E+000
3	0	1.485482836717060E+004	-2.1189003E-001	1.2082736E+000	0.0000000E+000	-1.4201636E+000
3	0	1.485532836716455E+004	-2.1173343E-001	1.2083768E+000	0.0000000E+000	-1.4201102E+000
3	0	1.485582836715849E+004	-2.1189772E-001	1.2080675E+000	0.0000000E+000	-1.4199653E+000
3	0	1.485582916715849E+004	-2.1195875E-001	1.2081362E+000	0.0000000E+000	-1.4200950E+000